time,velocity,brake_pressure
0.00,50.0,0
0.10,49.2,5
0.20,47.8,12
0.30,45.5,25
0.40,42.0,40
0.50,38.0,55
0.60,33.5,70
0.70,28.0,80
0.80,22.5,85
0.90,17.8,90
1.00,13.5,92
1.10,10.0,93
1.20,7.5,93
1.30,5.8,92
1.40,4.5,90
1.50,3.8,85
1.60,3.2,70
1.70,2.8,50
1.80,2.5,30
1.90,2.3,10
2.00,2.2,0
